"Time","A. Pressure -TS00 Monitor: A. Pressure -TS00 Monitor (psi)","A. Pressure -TS01 Monitor: A. Pressure -TS01 Monitor (psi)","A. Pressure -TS02 Monitor: A. Pressure -TS02 Monitor (psi)","A. Pressure -TS03 Monitor: A. Pressure -TS03 Monitor (psi)","A. Pressure -TS04 Monitor: A. Pressure -TS04 Monitor (psi)","A. Pressure -TS05 Monitor: A. Pressure -TS05 Monitor (psi)"
5.0E-8,0.25000000012354184,0.2500276148575062,0.25000793769125085,0.2500007518006251,0.25001108062700395,0.25000000000114947
1.0999999999999994E-6,0.25000011116969467,0.25032652942278766,0.2503915749206081,0.25001387441420114,0.2508903498915429,0.2500000000011558
2.1499999999999985E-6,0.25000090838161054,0.25035310083531814,0.25105207522640294,0.25006962160011936,0.25183467494058165,0.25000000000119166
3.1999999999999973E-6,0.2500075986778053,0.25034330811496874,0.25139313752207737,0.2502860720750367,0.252558763615372,0.2500000000012086
4.25E-6,0.2500303866859261,0.2504102857436173,0.25155006115505757,0.2507533724583076,0.25302971423406734,0.2500000000012318
5.300000000000008E-6,0.2500747269288228,0.2504463942367621,0.2519109850157938,0.25144108405757615,0.25314287103898897,0.2500000000012529
6.3500000000000154E-6,0.250137604667922,0.2506271864964363,0.2522310512179678,0.2523024168524655,0.2523015867871856,0.250000000001255
7.400000000000023E-6,0.250211512737715,0.25138827504099115,0.2528294052084781,0.2532236206569709,0.25168487007440093,0.2500000000012761
8.450000000000017E-6,0.25024896977365196,0.2524372134533341,0.2540935242341901,0.25409353650140315,0.2514729593074877,0.25000000000130357
9.500000000000007E-6,0.2502446205194102,0.25337887273350496,0.25543211083829903,0.2548547776113684,0.2517886880195242,0.25000000000132044
1.0549999999999997E-5,0.2502360625214692,0.25382098287272087,0.25632122108886374,0.2557429395687265,0.25268080630125345,0.2500000000013352
1.1599999999999987E-5,0.2502624590321517,0.2538731416565234,0.25670836054493673,0.2566941053032517,0.2540068024887425,0.2500000000013584
1.2649999999999977E-5,0.2503493208088297,0.25364455224067617,0.2563656173700309,0.25715326751921064,0.25534574224991846,0.2500000000013774
1.3699999999999967E-5,0.2505343074811921,0.2532555354852936,0.25570004588582707,0.2572141292160574,0.2562954129097092,0.2500000000014049
1.4749999999999957E-5,0.2507892653833049,0.25295920961099494,0.255077254059909,0.2572033136887224,0.25690330717062887,0.2500000000014154
1.5799999999999964E-5,0.2510687905349131,0.2531405011708362,0.2545996976680293,0.257179570285496,0.2572772303462205,0.25000000000144285
1.684999999999999E-5,0.25139098451561726,0.2536852900361992,0.2543036700728929,0.2572968280453861,0.2576338668637541,0.2500000000014597
1.7900000000000015E-5,0.25175763738348356,0.2544160709920278,0.2544517880402722,0.257649258348369,0.25831172055017465,0.2500000000014745
1.895000000000004E-5,0.252089017779193,0.2551940090518129,0.25500684112044547,0.258257207494382,0.2592616853713964,0.2500000000015083
2.0000000000000066E-5,0.25236822177509,0.2558256208931101,0.2557351391494912,0.25891904429123314,0.26027897186608473,0.2500000000015294
2.105000000000009E-5,0.2525815595720751,0.25631002585206464,0.25649218419994213,0.25927546962196574,0.2611548004423163,0.2500000000015357
2.2100000000000117E-5,0.2527162496733744,0.2565745683029551,0.25720151645422634,0.25987934524045253,0.2617644882635005,0.25000000000154626
2.3150000000000143E-5,0.2527546561758193,0.2567326895400146,0.25778354817745114,0.26073293450555357,0.2620127548693323,0.25000000000156103
2.4200000000000168E-5,0.25272891680848397,0.2568701503517782,0.25823003024034474,0.2614269078672384,0.261950874355784,0.25000000000159267
2.5250000000000194E-5,0.252642973249575,0.2570069451948427,0.258658411952234,0.2619454084888641,0.2617592366280259,0.25000000000160116
2.630000000000022E-5,0.25250162473478643,0.25715841272350715,0.25903904087236457,0.262443737649083,0.26156048658386816,0.25000000000162015
2.7350000000000245E-5,0.25234441841562805,0.257256485265562,0.2591817672571094,0.26298740783810487,0.2613631713812932,0.2500000000016349
2.840000000000027E-5,0.25225525266963,0.2573484781894234,0.25930142661792455,0.2633407488593272,0.2615664925967192,0.25000000000166867
2.9450000000000296E-5,0.25224207351222866,0.2574756237403129,0.2594482030703676,0.26351871904696533,0.2620712848666671,0.25000000000168765
3.050000000000032E-5,0.2522862922712012,0.25764497141694837,0.25970730701903305,0.26349638288587574,0.2626836749535235,0.2500000000017109
3.155000000000035E-5,0.2523949947369914,0.2579500279043104,0.2601860115405714,0.26320972762169914,0.2632701418546658,0.250000000001732
3.260000000000037E-5,0.2525718085008323,0.25836293145411227,0.2607184845165175,0.262623375746118,0.26366311440819146,0.2500000000017299
3.36500000000004E-5,0.2527266795746673,0.2588368931305604,0.26129291040034364,0.2623599512530396,0.2638963569763871,0.2500000000017594
3.470000000000042E-5,0.25279369764182924,0.2593169164899841,0.2619391160733539,0.2625727112794963,0.26429631256782304,0.25000000000178896
3.575000000000045E-5,0.25279074643519883,0.25976923678615543,0.262587079019753,0.2632639005631313,0.26493776962560955,0.25000000000181855
3.6800000000000474E-5,0.2527625771619859,0.26006582394497124,0.26319199779970676,0.2642229760445201,0.2656768486468617,0.2500000000018333
3.78500000000005E-5,0.2526973099558033,0.26024325070070853,0.26387440385737726,0.2649939459439841,0.26626643931173904,0.25000000000184386
3.8900000000000525E-5,0.25259184032376164,0.2604576940594483,0.26449637080363736,0.2655164967085818,0.2666060947660815,0.2500000000018544
3.995000000000055E-5,0.2524943711500037,0.26075035804059765,0.26505656918336373,0.26610071297297816,0.2666787919728918,0.2500000000018755
4.1000000000000576E-5,0.2524333277140277,0.2611023694451046,0.2654278770009225,0.26674490947330065,0.26660453571683923,0.2500000000019093
4.21000000000006E-5,0.2523911070727777,0.26142596549791236,0.26575654123250514,0.2676207796136585,0.2664363699591006,0.25000000000191985
4.315000000000063E-5,0.25241535473516996,0.261738512717173,0.2659213891028521,0.2685421130757107,0.26654018146019576,0.2500000000019346
4.4200000000000654E-5,0.25248457220620896,0.2620162986334333,0.26593775315876594,0.2692091562279695,0.26690401331688013,0.2500000000019515
4.525000000000068E-5,0.252591257946935,0.26225969754597006,0.2658906268161823,0.2695359811778398,0.2673802554343722,0.250000000001981
4.6300000000000705E-5,0.25274444101438437,0.2625570738731202,0.2658829263921933,0.26959873237806287,0.26801214944529655,0.2500000000020085
4.735000000000073E-5,0.25293060646816334,0.2629262945493478,0.26590416913665493,0.26938162048826725,0.26867625146572555,0.25000000000201483
4.8400000000000756E-5,0.253128649515882,0.26336637379900035,0.26598648083040627,0.26932875440151927,0.26928888467830153,0.25000000000204436
4.945000000000078E-5,0.253344984424538,0.26378681539599713,0.26613324227428403,0.26960770360814024,0.26984423858448486,0.250000000002076
5.050000000000081E-5,0.2535964863262138,0.26408640819908175,0.2663673116038245,0.270220615028436,0.2702884501806063,0.25000000000208233
5.155000000000083E-5,0.25389272601523283,0.26428945980371843,0.26677118431949914,0.2710716608466169,0.2705103074430705,0.25000000000210343
5.260000000000086E-5,0.2542458515351433,0.26436863700705493,0.26727461449395284,0.27194139722997734,0.27066080951798294,0.250000000002133
5.3650000000000884E-5,0.2546210104711947,0.26435464820808413,0.26781106904147806,0.27274010535007953,0.2708664614025373,0.2500000000021457
5.470000000000091E-5,0.25496631443069834,0.26437570026036,0.26834873647061347,0.27344189001275615,0.2711688504463625,0.2500000000021541
5.5750000000000935E-5,0.2552662918416849,0.2646507149151035,0.2687978094800233,0.27392269178615636,0.2715289589025548,0.25000000000216466
5.680000000000096E-5,0.25551281810422577,0.26496704929243897,0.26916808640300527,0.27417461745243094,0.27198802867248223,0.2500000000021921
5.7850000000000986E-5,0.25573861887685184,0.2653194324403289,0.2695031279985311,0.2742256672082636,0.27244238360081846,0.2500000000022238
5.890000000000101E-5,0.25596245955450675,0.26572233895027836,0.2696437512363977,0.2740818598657969,0.2728568993081394,0.250000000002228
5.995000000000104E-5,0.2561549560306178,0.26612899856744376,0.2695318557937038,0.2737779317076302,0.27327141036277386,0.25000000000225964
6.100000000000106E-5,0.25629787132196025,0.266555580499076,0.26937815370336077,0.2734193654999839,0.27381692717437084,0.25000000000226386
6.205000000000109E-5,0.2564143229049723,0.26695396966575335,0.26905742989171233,0.2730572409508558,0.27437224885769756,0.2500000000022934
6.310000000000111E-5,0.2565162734261202,0.26732586777680706,0.2688676003586295,0.27282368802918744,0.27498074959727975,0.25000000000232087
6.415000000000114E-5,0.25660917654398124,0.2677015379731222,0.26893165914052286,0.2727283950601095,0.2756103158020269,0.25000000000233985
6.520000000000116E-5,0.2567218265165681,0.2681075586137772,0.2691974878682116,0.27277417375900465,0.2761498365494834,0.25000000000236516
6.625000000000119E-5,0.25688761758120016,0.2685000828923555,0.26963105132220805,0.27300298868283707,0.27651430703780566,0.2500000000023736
6.730000000000122E-5,0.2571459149828113,0.269092288529486,0.2701810537466709,0.2734532337607543,0.27687471231940114,0.2500000000023947
6.835000000000124E-5,0.25751352923306353,0.2698414235329282,0.2707597660165193,0.27406938536691494,0.27714923563122373,0.25000000000241585
6.940000000000127E-5,0.25798615389980856,0.2706128689340534,0.27139897255656475,0.2748207849277694,0.27730158362581114,0.25000000000241795
7.045000000000129E-5,0.25852515195770204,0.27129774256151895,0.2720941353432061,0.2757227539700195,0.2774548373451207,0.25000000000243694
7.150000000000132E-5,0.2590187639889076,0.2718398828271326,0.2728335825715422,0.27663313302381287,0.2776957157578365,0.25000000000246436
7.255000000000134E-5,0.25937592996823966,0.27222348524512047,0.2735858749410871,0.2773935003899792,0.27805354860858666,0.250000000002496
7.360000000000137E-5,0.25960139392939136,0.2724553700777904,0.27422422414925957,0.27800543674931844,0.278591682213487,0.25000000000251715
7.46500000000014E-5,0.25972313389775736,0.27260943543033855,0.2747161265492313,0.2784711130641458,0.27922806114192655,0.25000000000253403
7.570000000000142E-5,0.2597760360361447,0.272704499539029,0.2750834368043262,0.2787526348019701,0.2799499469518927,0.2500000000025551
7.675000000000145E-5,0.2597940496255004,0.27271089641565,0.2753338955024628,0.27894768864594205,0.28065732535868,0.25000000000258255
7.780000000000147E-5,0.2597708538585685,0.27268918051272334,0.2756540029072381,0.27912427981195187,0.28130855052153786,0.25000000000260786
7.88500000000015E-5,0.25972388417887976,0.2726291043060538,0.2761096604882583,0.27925942551925564,0.28200139492497833,0.25000000000260786
7.990000000000152E-5,0.2596675532445301,0.27251800239792695,0.27660130804082667,0.2793324988636214,0.2827885707190847,0.2500000000026142
8.095000000000155E-5,0.25960937745246127,0.2724312374464024,0.27713422701658164,0.27941644919675357,0.2835586576905324,0.250000000002629
8.200000000000157E-5,0.2595664405817054,0.2724001561998783,0.27760502765810496,0.27950679869279754,0.2842589906884861,0.2500000000026501
8.30500000000016E-5,0.2595467659279019,0.2724505019610588,0.27796750846028623,0.2796223481316704,0.28483277115347067,0.2500000000026754
8.415000000000163E-5,0.2595332457537672,0.27261506347046005,0.27825323481519726,0.2797665231861473,0.2852065374610342,0.2500000000026986
8.520000000000165E-5,0.25950554650398105,0.2728718150976081,0.2784838502408444,0.27994187248191293,0.2853561414632264,0.2500000000027113
8.625000000000168E-5,0.2594676080445179,0.2732184388146852,0.27866880697599306,0.2801592774528724,0.28536925398236285,0.25000000000271977
8.73000000000017E-5,0.2594118924960582,0.2736678133518593,0.278842123804575,0.2804273886910869,0.28546440687922076,0.250000000002743
8.835000000000173E-5,0.25932623830693124,0.2741386404431762,0.27896565260149275,0.28082642973269367,0.28559310276666966,0.2500000000027683
8.940000000000175E-5,0.25923025200507993,0.27460024610454276,0.27907324747482193,0.281357559326989,0.2857522479593055,0.2500000000028105
9.045000000000178E-5,0.2591704671975395,0.2750026232696091,0.2792556038153642,0.28198842969457794,0.28597842791083256,0.25000000000284006
9.15000000000018E-5,0.2591517335279494,0.27538078441957287,0.27953443132256894,0.2827228059650203,0.2861737756266938,0.2500000000028316
9.255000000000183E-5,0.2591753014631636,0.2758004418488271,0.279766070581495,0.2833552083583504,0.28623198422376284,0.25000000000284006
9.360000000000186E-5,0.2592335008965531,0.27623966455445753,0.2800420019277122,0.2838572125671109,0.28623517627407474,0.2500000000028759
9.465000000000188E-5,0.25931644557147226,0.27664414040762064,0.2804051104807479,0.28427857239736626,0.2862703647155175,0.2500000000029097
9.57000000000019E-5,0.2593397428008348,0.27702212297337075,0.2808129544599231,0.2846265890496044,0.2862536665688993,0.2500000000029245
9.675000000000193E-5,0.26103953848114597,0.27732859496605455,0.281367537211058,0.2849067477151786,0.28631628242191415,0.25000000000293715
9.780000000000196E-5,1.4255591208407348,0.2776074963183696,0.28208670938416114,0.2852470553797367,0.28649076434506865,0.25000000000297934
9.885000000000198E-5,1.5224921115023253,0.2779181682242679,0.28289687798695723,0.28562187294502234,0.2866657038905356,0.25000000000300465
9.990000000000201E-5,1.4761961719487684,0.2782689727056545,0.2837272253907439,0.28600432019101085,0.28683937219260686,0.25000000000300254
1.0095000000000203E-4,1.4554977165838527,0.2787042186574584,0.2845471007914146,0.28644973722704903,0.28712212212770205,0.2500000000030152
1.0200000000000206E-4,1.4855345507759348,0.27917031886062343,0.2852308857163353,0.2869648369862436,0.2873986634771924,0.2500000000030194
1.0305000000000208E-4,1.5260426021867604,0.27962261118394977,0.2857441699919204,0.28751488740828046,0.28768566923141814,0.2500000000030427
1.0410000000000211E-4,1.496933790722506,0.28015408845010015,0.28611441290570844,0.28807221208938866,0.28806563409844516,0.2500000000030722
1.0515000000000214E-4,1.4227593384901942,0.28077490912872,0.2864001989690458,0.28862575800357115,0.28854124694092764,0.2500000000030975
1.0620000000000216E-4,1.3483262690738114,0.2814385827887523,0.2866702353787229,0.28911392820959614,0.28913510405050397,0.2500000000031186
1.0725000000000219E-4,1.2922813985787367,0.282153182651857,0.286843784025727,0.2896125109696881,0.2897002168859286,0.2500000000031292
1.0830000000000221E-4,1.2672559564117005,0.2827881520647582,0.286993581976227,0.29012055141299803,0.29019546492112414,0.25000000000315875
1.0935000000000224E-4,1.2647246645782786,0.28332441632735667,0.28711097596766977,0.2906261690558119,0.2906257209822178,0.2500000000031756
1.1040000000000226E-4,1.2740263569127763,0.28371191322613265,0.28714081217014026,0.2911316359085377,0.2909716515634257,0.25000000000317774
1.1145000000000229E-4,1.2843378106014283,0.2839811395885832,0.2871410668982031,0.2916172730719697,0.2912315550001396,0.2500000000032115
1.1250000000000231E-4,1.2991330066001592,0.28421767817991117,0.28722304625962236,0.2920966581542902,0.29147677405188704,0.25000000000323264
1.1355000000000234E-4,1.3253716097210573,0.2844346578108656,0.28735485718041986,0.29258428104477135,0.2916840144752651,0.2500000000032516
1.1460000000000237E-4,1.3462253513653546,0.2846417154699418,0.2875403526920772,0.293092972927126,0.29187059050477254,0.2500000000032685
1.1565000000000239E-4,1.3875987805083734,0.28486599445791344,0.2877764211335401,0.29360078553786767,0.2920148489834977,0.2500000000032706
1.1670000000000242E-4,1.476547254855245,0.285035780198327,0.28799983432377296,0.29407052234265824,0.29223599438888115,0.25000000000330225
1.1775000000000244E-4,1.5693794557435756,0.2851915118700219,0.28824263750677714,0.2945015644538609,0.29258773933539955,0.2500000000033149
1.1880000000000247E-4,1.613338639148589,0.28535505186762056,0.2884697461384582,0.2948722480838058,0.29305577974729846,0.2500000000033086
1.1985000000000249E-4,1.619344910336716,0.2854949061883489,0.28868014977035766,0.2951909693596907,0.29359347210880926,0.25000000000333394
1.2090000000000252E-4,1.6177714879263925,0.28559464817421737,0.2890057779990515,0.29546679338881726,0.29419489575655305,0.2500000000033698
1.2195000000000254E-4,1.6133113738116018,0.2856158510523556,0.2893091689688449,0.2956020004594106,0.2947992769274005,0.2500000000033888
1.2300000000000256E-4,1.602628857836001,0.2855698218572857,0.2895948718423874,0.2955784759554762,0.29538528353116283,0.25000000000340566
1.2405000000000258E-4,1.5943983876993564,0.28547982301948277,0.2899614936626951,0.29550464144923827,0.29592040649660134,0.25000000000343103
1.251500000000026E-4,1.596845143146834,0.28534682575739545,0.2904244713826035,0.29549496901997624,0.2963985983275211,0.25000000000345
1.2620000000000263E-4,1.5983839812931542,0.2852815030583662,0.29089554410143975,0.29560412673867137,0.2966870598009998,0.2500000000034732
1.2725000000000266E-4,1.5882661630707797,0.285276898968859,0.2914511701537724,0.2957570872091972,0.2968659783007089,0.25000000000350275
1.2830000000000268E-4,1.5751889636639833,0.2853421024202511,0.2920153656480434,0.2959631337609351,0.2969541165548338,0.25000000000352807
1.293500000000027E-4,1.5629015642010904,0.28549827289101326,0.2925240730518821,0.2961822348550249,0.29701559617763074,0.2500000000035429
1.3040000000000274E-4,1.5467922003542567,0.28574747085132784,0.29291932579101065,0.2963294685746083,0.2970773328453025,0.250000000003545
1.3145000000000276E-4,1.5252032995159195,0.2860831546660586,0.29320878829260955,0.2964556672225788,0.2971876027030232,0.2500000000035408
1.325000000000028E-4,1.5017056954169694,0.286457967317286,0.293515367412449,0.2966827852922235,0.2974338128519323,0.25000000000348377
1.335500000000028E-4,1.4525526652991214,0.2868883412191105,0.2938306667631646,0.2969845415851006,0.2978308576076411,0.25000000000345635
1.3460000000000284E-4,1.355787626899622,0.2873694500657439,0.294118845755438,0.2973562779461149,0.29833109991955364,0.25000000000347744
1.3565000000000286E-4,1.2376777670492778,0.2878907312512033,0.2943738801168174,0.297791896108687,0.29896239812018,0.25000000000365474
1.367000000000029E-4,1.1281326598763197,0.2884938606542141,0.2946312515855301,0.2982766201592212,0.299631993446303,0.2500000000040093
1.3775000000000291E-4,1.0399025812502187,0.2891439038300648,0.29491919616849416,0.2987864538906938,0.3001922788144046,0.2500000000045581
1.3880000000000294E-4,0.9730276237977021,0.28983640843310793,0.29517872911414644,0.2993209206764619,0.30062926381888805,0.2500000000051026
1.3985000000000297E-4,0.9239076431589655,0.29051347560850327,0.29541798282865844,0.2999017228254164,0.3009670294115732,0.25000000000524186
1.40900000000003E-4,0.8909474428705163,0.29111983885502163,0.2957564123982258,0.30054807849555837,0.3011702996570006,0.250000000004309
1.4195000000000302E-4,0.8707750311239247,0.2916110924115889,0.2959920209079874,0.30119057000526944,0.30129824357236457,0.250000000001808
1.4300000000000304E-4,0.8601325800419662,0.29201226731622554,0.29616274259421577,0.3017442826758831,0.3014495591207803,0.24999999999765857
1.4405000000000307E-4,0.8545813960818014,0.2922934387641953,0.29639227255665046,0.30220598930937637,0.30160391931977454,0.24999999999308917
1.451000000000031E-4,0.8523577066317075,0.29246413151947387,0.2966981605480029,0.3026086041637912,0.3017171440088599,0.24999999999062192
1.4615000000000312E-4,0.8530160047673112,0.29254114154729643,0.29701630406286117,0.3029994178856899,0.3017819379738577,0.24999999999430064
1.4720000000000314E-4,0.855523051102923,0.2925623256764628,0.2974590213800413,0.30343124985845227,0.3019701661923835,0.25000000000827477
1.4825000000000317E-4,0.859915012264689,0.2925391035554287,0.2979548704645649,0.3038751380794728,0.30224224803885724,0.25000000003496725
